Time (s),Channel 1 (V),Channel 2 (V)
-0.001045739405940594,-0.05221534199553866,-1.623817312763693
-0.001045409405940594,-0.05154452353845473,-1.638566634278859
-0.001045079405940594,-0.05087370508136958,-1.649628625415256
-0.001044749405940594,-0.05020288662428565,-1.671752607688005
-0.001044419405940594,-0.0495320681672008,-1.682814598824404
-0.001044089405940594,-0.04919665893865853,-1.693876589960783
-0.001043759405940594,-0.04819043125303188,-1.704938581097173
-0.001043429405940594,-0.04751961279594658,-1.719687902612362
-0.001043099405940594,-0.04684879433886265,-1.730749893748736
-0.001042769405940594,-0.04651338511031961,-1.741811884885131
-0.001042439405940594,-0.04550715742469372,-1.752873876021505
-0.001042109405940594,-0.04550715742469326,-1.7602485367791
-0.001041779405940594,-0.04450092973906691,-1.778685188673065
-0.001041449405940594,-0.04383011128198191,-1.786059849430663
-0.001041119405940594,-0.04315929282489767,-1.79343451018825
-0.001040789405940594,-0.04215306513927056,-1.811871162082227
-0.001040459405940594,-0.0411468374536442,-1.819245822839813
-0.001040129405940594,-0.04047601899655921,-1.830307813976201
-0.001039799405940594,-0.03980520053947497,-1.84136980511258
-0.001039469405940594,-0.03913438208239012,-1.85243179624897
-0.001039139405940594,-0.03846356362530589,-1.863493787385349
-0.001038809405940594,-0.03745733593967877,-1.878243108900533
-0.001038479405940594,-0.03712192671113682,-1.889305100036907
-0.001038149405940594,-0.03645110825405197,-1.900367091173301
-0.001037819405940594,-0.03611569902551,-1.907741751930885
-0.001037489405940594,-0.03578028979696743,-1.918803743067276
-0.001037159405940594,-0.03477406211134153,-1.926178403824859
-0.001036829405940594,-0.03410324365425608,-1.93724039496125
-0.001036499405940594,-0.03309701596863018,-1.951989716476415
-0.001036169405940594,-0.03242619751154503,-1.959364377234015
-0.001035839405940594,-0.0317553790544608,-1.970426368370392
-0.001035509405940594,-0.03108456059737595,-1.981488359506782
-0.001035179405940594,-0.02974292368320779,-1.999925011400744
-0.001034849405940594,-0.02940751445466445,-2.007299672158347
-0.001034519405940594,-0.02840128676903718,-2.014674332915947
-0.001034189405940594,-0.02773046831195325,-2.029423654431112
-0.001033859405940594,-0.0270596498548681,-2.040485645567508
-0.001033529405940594,-0.02638883139778417,-2.051547636703883
-0.001033199405940594,-0.02504719448361479,-2.051547636703888
-0.001032869405940594,-0.02471178525507267,-2.06629695821906
-0.001032539405940594,-0.02404096679798798,-2.069984288597862
-0.001032209405940594,-0.02337014834090374,-2.084733610113034
-0.001031879405940594,-0.02202851142673436,-2.09210827087063
-0.001031549405940594,-0.021022283741108,-2.10317026200701
-0.001031219405940594,-0.02068687451256528,-2.106857592385809
-0.001030889405940594,-0.02035146528402316,-2.114232253143395
-0.001030559405940594,-0.01934523759839619,-2.125294244279784
-0.001030229405940594,-0.0183390099127703,-2.132668905037367
-0.001029899405940594,-0.01800360068422712,-2.147418226552552
-0.001029569405940594,-0.01666196377005926,-2.151105556931344
-0.001029239405940594,-0.0159911453129735,-2.165854878446526
-0.001028909405940594,-0.0149849176273476,-2.173229539204109
-0.001028579405940594,-0.01397868994171988,-2.1842915303405
-0.001028249405940594,-0.01297246225609398,-2.195353521476874
-0.001027919405940594,-0.01230164379900853,-2.199040851855679
-0.001027589405940594,-0.01196623457046656,-2.202728182234471
-0.001027259405940594,-0.0109600068848399,-2.21010284299206
-0.001026929405940594,-0.009953779199213551,-2.221164834128438
-0.001026599405940594,-0.0092829607421284,-2.228539494886034
-0.001026269405940594,-0.008612142285043251,-2.235914155643631
-0.001025939405940594,-0.007941323827959321,-2.243288816401213
-0.001025609405940594,-0.006935096142331901,-2.254350807537601
-0.001025279405940594,-0.006264277685247971,-2.254350807537601
-0.001024949405940594,-0.005258049999620856,-2.265412798673986
-0.001024619405940594,-0.00458723154253662,-2.272787459431572
-0.001024289405940594,-0.003916413085451776,-2.283849450567959
-0.001023959405940594,-0.002910185399825423,-2.291224111325545
-0.001023629405940594,-0.002574776171282695,-2.298598772083138
-0.001023299405940594,-0.001568548485656343,-2.305973432840724
-0.001022969405940594,-0.0008977300285713454,-2.309660763219523
-0.001022639405940594,0.0001084976570550071,-2.313348093598316
-0.001022309405940594,0.001114725342682275,-2.320722754355907
-0.001021979405940594,0.002120953028308627,-2.3244100847347
-0.001021649405940594,0.003127180713935895,-2.335472075871087
-0.001021319405940594,0.00346258994247786,-2.342846736628669
-0.001020989405940594,0.004804226856647244,-2.35390872776506
-0.001020659405940594,0.005139636085189209,-2.357596058143852
-0.001020329405940594,0.005475045313731785,-2.364970718901445
-0.001019999405940594,0.00648127299935768,-2.372345379659027
-0.001019669405940594,0.007487500684985405,-2.376032710037829
-0.001019339405940594,0.008493728370611301,-2.383407370795412
-0.001019009405940594,0.009164546827696756,-2.387094701174213
-0.001018679405940594,0.01017077451332265,-2.387094701174213
-0.001018349405940594,0.01117700219894992,-2.394469361931799
-0.001018019405940594,0.01184782065603431,-2.401844022689386
-0.001017689405940594,0.01218322988457703,-2.405531353068186
-0.001017359405940594,0.01285404834166218,-2.412906013825779
-0.001017029405940594,0.01386027602728808,-2.41659334420457
-0.001016699405940594,0.0148665037129158,-2.423968004962166
-0.001016369405940594,0.0158727313985417,-2.435029996098541
-0.001016039405940594,0.01687895908416897,-2.435029996098546
-0.001015709405940594,0.0175497775412532,-2.442404656856132
-0.001015379405940594,0.01855600522688032,-2.442404656856135
-0.001015049405940594,0.01922682368396455,-2.446091987234928
-0.001014719405940594,0.01956223291250712,-2.449779317613725
-0.001014389405940594,0.01956223291250712,-2.453466647992518
-0.001014059405940594,0.02056846059813393,-2.457153978371314
-0.001013729405940594,0.02123927905521817,-2.464528639128901
-0.001013399405940594,0.02224550674084529,-2.468215969507699
-0.001013069405940594,0.02291632519792952,-2.471903299886492
-0.001012739405940594,0.02358714365501437,-2.475590630265288
-0.001012409405940594,0.02459337134064026,-2.471903299886497
-0.001012079405940594,0.02492878056918344,-2.468215969507699
-0.001011749405940594,0.02559959902626737,-2.479277960644073
-0.001011419405940594,0.02627041748335253,-2.482965291022878
-0.001011089405940594,0.02694123594043646,-2.486652621401669
-0.001010759405940594,0.02794746362606388,-2.486652621401673
-0.001010429405940594,0.02828287285460584,-2.490339951780464
-0.001010099405940594,0.02895369131169038,-2.49402728215926
-0.001009769405940594,0.02928910054023265,-2.501401942916845
-0.001009439405940594,0.03063073745440142,-2.501401942916852
-0.001009109405940594,0.03130155591148596,-2.505089273295643
-0.001008779405940594,0.03163696514002869,-2.501401942916853
-0.001008449405940594,0.03230778359711354,-2.512463934053236
-0.001008119405940594,0.0326431928256555,-2.512463934053236
-0.001007789405940594,0.03331401128274065,-2.516151264432031
-0.001007459405940594,0.03432023896836655,-2.516151264432031
-0.001007129405940594,0.03499105742545155,-2.519838594810826
-0.001006799405940594,0.03532646665399367,-2.519838594810826
-0.001006469405940594,0.03532646665399382,-2.519838594810826
-0.001006139405940594,0.03633269433962017,-2.519838594810826
-0.001005809405940594,0.0366681035681629,-2.52352592518962
-0.001005479405940594,0.0366681035681629,-2.519838594810827
-0.001005149405940594,0.03733892202524744,-2.52352592518962
-0.001004819405940594,0.0386805589394159,-2.527213255568413
-0.001004489405940594,0.03935137739650105,-2.53090058594721
-0.001004159405940594,0.04035760508212695,-2.53090058594721
-0.001003829405940594,0.04069301431067014,-2.534587916326005
-0.001003499405940594,0.04169924199629603,-2.530900585947214
-0.001003169405940594,0.04203465122483922,-2.527213255568415
-0.001002839405940594,0.04237006045338118,-2.527213255568415
-0.001002509405940594,0.04270546968192376,-2.527213255568415
-0.001002179405940594,0.04304087891046572,-2.530900585947207
-0.001001849405940594,0.04371169736755057,-2.534587916326005
-0.001001519405940594,0.04404710659609253,-2.534587916326005
-0.001001189405940594,0.04471792505317707,-2.534587916326005
-0.001000859405940594,0.04538874351026131,-2.534587916326005
-0.001000529405940594,0.04605956196734615,-2.530900585947212
-0.001000199405940594,0.04605956196734692,-2.534587916326003
-0.0009998694059405941,0.04706578965297281,-2.530900585947212
-0.0009995394059405939,0.04740119888151554,-2.53090058594721
-0.0009992094059405941,0.04740119888151554,-2.53090058594721
-0.0009988794059405939,0.04840742656714235,-2.53090058594721
-0.0009985494059405941,0.04907824502422658,-2.53090058594721
-0.0009982194059405939,0.04941365425276915,-2.527213255568415
-0.0009978894059405941,0.05008447270985339,-2.527213255568415
-0.0009975594059405939,0.05008447270985369,-2.527213255568415
-0.0009972294059405942,0.05041988193839581,-2.530900585947208
-0.0009968994059405939,0.05075529116693824,-2.527213255568415
-0.0009965694059405942,0.05109070039548035,-2.523525925189622
-0.000996239405940594,0.05109070039548051,-2.516151264432031
-0.0009959094059405942,0.05176151885256474,-2.519838594810824
-0.000995579405940594,0.05209692808110732,-2.512463934053236
-0.0009952494059405942,0.05243233730964928,-2.519838594810819
-0.000994919405940594,0.05276774653819186,-2.516151264432031
-0.0009945894059405942,0.05310315576673382,-2.508776603674448
-0.000994259405940594,0.05377397422381867,-2.508776603674441
-0.0009939294059405942,0.05377397422381867,-2.50508927329565
-0.000993599405940594,0.05478020190944548,-2.501401942916852
-0.0009932694059405943,0.05444479268090351,-2.49771461253806
-0.000992939405940594,0.05478020190944548,-2.494027282159262
-0.0009926094059405943,0.05545102036652941,-2.490339951780471
-0.0009922794059405941,0.0551156111379879,-2.49402728215926
-0.0009919494059405943,0.05612183882361364,-2.490339951780471
-0.0009916194059405941,0.05578642959507244,-2.482965291022881
-0.0009912894059405939,0.05578642959507229,-2.479277960644081
-0.0009909594059405941,0.05578642959507229,-2.47559063026529
-0.0009906294059405939,0.05612183882361456,-2.471903299886492
-0.0009902994059405941,0.05612183882361456,-2.468215969507701
-0.0009899694059405939,0.05645724805215683,-2.468215969507699
-0.0009896394059405941,0.05679265728069895,-2.460841308750112
-0.0009893094059405939,0.05645724805215683,-2.457153978371314
-0.0009889794059405941,0.05712806650924106,-2.453466647992521
-0.0009886494059405939,0.05746347573778364,-2.449779317613725
-0.0009883194059405942,0.05746347573778364,-2.446091987234932
-0.000987989405940594,0.05779888496632591,-2.43871732647734
-0.0009876594059405942,0.05779888496632591,-2.435029996098547
-0.000987329405940594,0.05846970342341045,-2.435029996098546
-0.0009869994059405942,0.05914052188049468,-2.42765533534096
-0.000986669405940594,0.05880511265195272,-2.423968004962161
-0.0009863394059405942,0.05914052188049468,-2.423968004962161
-0.000986009405940594,0.05880511265195272,-2.420280674583366
-0.0009856794059405942,0.05846970342341076,-2.416593344204575
-0.000985349405940594,0.05947593110903725,-2.412906013825777
-0.0009850194059405942,0.05914052188049529,-2.401844022689403
-0.000984689405940594,0.05846970342341045,-2.401844022689393
-0.0009843594059405943,0.05880511265195242,-2.398156692310601
-0.0009840294059405941,0.05914052188049483,-2.387094701174218
-0.0009836994059405943,0.05914052188049498,-2.37972004041663
-0.0009833694059405941,0.05914052188049498,-2.372345379659038
-0.0009830394059405943,0.05914052188049498,-2.372345379659034
-0.0009827094059405941,0.05914052188049498,-2.361283388522655
-0.0009823794059405939,0.05914052188049498,-2.353908727765055
-0.0009820494059405941,0.05914052188049498,-2.342846736628681
-0.0009817194059405939,0.05914052188049514,-2.33915940624988
-0.0009813894059405941,0.0594759311090371,-2.335472075871088
-0.0009810594059405939,0.05914052188049498,-2.328097415113497
-0.0009807294059405941,0.05914052188049498,-2.324410084734704
-0.0009803994059405939,0.05914052188049498,-2.313348093598318
-0.0009800694059405942,0.05880511265195287,-2.305973432840732
-0.0009797394059405939,0.05846970342341045,-2.298598772083138
-0.0009794094059405942,0.05846970342341045,-2.291224111325552
-0.000979079405940594,0.05846970342341045,-2.283849450567959
-0.0009787494059405942,0.05813429419486833,-2.276474789810373
-0.000978419405940594,0.05846970342341045,-2.272787459431575
-0.0009780894059405942,0.05779888496632652,-2.265412798673992
-0.000977759405940594,0.05813429419486818,-2.254350807537601
-0.0009774294059405942,0.05813429419486818,-2.25066347715881
-0.000977099405940594,0.05813429419486818,-2.239601486022422
-0.0009767694059405942,0.05779888496632622,-2.232226825264839
-0.0009764394059405941,0.05779888496632591,-2.224852164507243
-0.0009761094059405941,0.05746347573778364,-2.213790173370858
-0.0009757794059405942,0.05746347573778364,-2.210102842992064
-0.0009754494059405942,0.05746347573778364,-2.202728182234478
-0.0009751194059405942,0.05645724805215729,-2.191666191098094
-0.0009747894059405942,0.05679265728069895,-2.187978860719296
-0.0009744594059405942,0.0567926572806991,-2.176916869582915
-0.000974129405940594,0.0567926572806991,-2.169542208825316
-0.000973799405940594,0.05679265728069864,-2.158480217688937
-0.000973469405940594,0.05578642959507214,-2.158480217688932
-0.000973139405940594,0.05545102036652971,-2.147418226552549
-0.000972809405940594,0.05478020190944548,-2.140043565794963
-0.000972479405940594,0.05511561113798775,-2.121606913900989
-0.000972149405940594,0.05478020190944548,-2.110544922764604
-0.000971819405940594,0.05444479268090321,-2.103170262007015
-0.000971489405940594,0.05410938345236094,-2.09948293162822
-0.000971159405940594,0.05377397422381867,-2.09210827087063
-0.0009708294059405941,0.0534385649952764,-2.077358949355451
-0.0009704994059405941,0.05243233730964959,-2.073671618976657
-0.0009701694059405941,0.05209692808110732,-2.066296958219067
-0.0009698394059405941,0.05176151885256505,-2.055234967082682
-0.0009695094059405941,0.05142610962402278,-2.036798315188709
-0.0009691794059405941,0.05176151885256505,-2.025736324052324
-0.0009688494059405941,0.05109070039548051,-2.018361663294735
-0.0009685194059405941,0.05075529116693824,-2.00729967215835
-0.0009681894059405941,0.05075529116693824,-1.999925011400761
-0.0009678594059405941,0.05008447270985369,-1.985175689885582
-0.0009675294059405941,0.04941365425276915,-1.977801029127992
-0.0009671994059405941,0.04840742656714235,-1.970426368370402
-0.0009668694059405942,0.04840742656714235,-1.963051707612816
-0.0009665394059405942,0.04807201733860023,-1.948302386097641
-0.0009662094059405942,0.04773660811005796,-1.937240394961255
-0.0009658794059405942,0.04740119888151569,-1.922491073446077
-0.0009655494059405942,0.0467303804244313,-1.911429082309691
-0.000965219405940594,0.04673038042443085,-1.90405442155209
-0.000964889405940594,0.04639497119588812,-1.889305100036914
-0.000964559405940594,0.04505333428171919,-1.881930439279323
-0.000964229405940594,0.04404710659609284,-1.87086844814294
-0.000963899405940594,0.04404710659609284,-1.863493787385354
-0.000963569405940594,0.0433762881390083,-1.85243179624897
-0.000963239405940594,0.04304087891046603,-1.83768247473379
-0.000962909405940594,0.04237006045338149,-1.830307813976201
-0.000962579405940594,0.04237006045338149,-1.815558492461022
-0.0009622494059405941,0.04136383276775468,-1.804496501324637
-0.0009619194059405941,0.04102842353921241,-1.793434510188253
-0.0009615894059405941,0.04035760508212786,-1.782372519051869
-0.0009612594059405941,0.03968678662504332,-1.767623197536689
-0.0009609294059405941,0.03868055893941651,-1.75287387602151
-0.0009605994059405941,0.03800974048233197,-1.749186545642715
-0.0009602694059405941,0.03733892202524744,-1.734437224127536
-0.0009599394059405941,0.0366681035681629,-1.723375232991152
-0.0009596094059405941,0.03599728511107836,-1.712313241854768
-0.0009592794059405941,0.03566187588253609,-1.697563920339588
-0.0009589494059405941,0.03465564819690928,-1.690189259581999
-0.0009586194059405941,0.03432023896836701,-1.679127268445614
-0.0009582894059405942,0.03398482973982474,-1.664377946930435
-0.0009579594059405942,0.0333140112827405,-1.649628625415263
-0.0009576294059405942,0.03297860205419808,-1.634879303900084
-0.0009572994059405942,0.03230778359711369,-1.623817312763698
-0.0009569694059405942,0.03197237436857127,-1.612755321627313
-0.000956639405940594,0.03130155591148642,-1.598006000112123
-0.000956309405940594,0.03096614668294385,-1.583256678596945
-0.000955979405940594,0.02995991899731734,-1.572194687460559
-0.000955649405940594,0.02962450976877477,-1.557445365945381
-0.000955319405940594,0.02861828208314842,-1.546383374809002
-0.000954989405940594,0.02794746362606388,-1.527946722915028
-0.000954659405940594,0.02727664516897934,-1.516884731778644
-0.000954329405940594,0.0266058267118948,-1.50582274064226
-0.000953999405940594,0.02593500825481026,-1.49107341912708
-0.0009536694059405941,0.02593500825481026,-1.476324097611901
-0.0009533394059405941,0.02492878056918344,-1.465262106475517
-0.0009530094059405941,0.02425796211209891,-1.457887445717927
-0.0009526794059405941,0.02358714365501437,-1.435763463445159
-0.0009523494059405941,0.02291632519792983,-1.421014141929979
-0.0009520194059405941,0.02157468828376075,-1.4062648204148
-0.0009516894059405941,0.02090386982667621,-1.391515498899621
-0.0009513594059405941,0.01989764214104939,-1.380453507763237
-0.0009510294059405941,0.01889141445542258,-1.373078847005647
-0.0009506994059405941,0.01855600522688032,-1.358329525490468
-0.0009503694059405941,0.01788518676979578,-1.343580203975289
-0.0009500394059405941,0.01754977754125351,-1.32883088246011
-0.0009497094059405942,0.0165435498556267,-1.310394230566136
-0.0009493794059405942,0.01587273139854246,-1.299332239429756
-0.0009490494059405942,0.01453109448437369,-1.280895587535786
-0.0009487194059405942,0.01453109448437308,-1.269833596399398
-0.0009483894059405942,0.01419568525583096,-1.255084274884221
-0.000948059405940594,0.01318945757020338,-1.240334953369028
-0.000947729405940594,0.01184782065603476,-1.225585631853852
-0.000947399405940594,0.01151241142749234,-1.218210971096258
-0.000947069405940594,0.01084159297040795,-1.199774319202286
-0.000946739405940594,0.01050618374186583,-1.185024997687113
-0.000946409405940594,0.009499956056239024,-1.170275676171934
-0.000946079405940594,0.008493728370612215,-1.155526354656755
-0.000945749405940594,0.007822909913527675,-1.140777033141576
-0.000945419405940594,0.007152091456443135,-1.122340381247602
-0.0009450894059405941,0.006145863770816325,-1.111278390111218
-0.0009447594059405941,0.005139636085189515,-1.092841738217243
-0.0009444294059405941,0.005139636085189515,-1.089154407838449
-0.0009440994059405941,0.003797999171020435,-1.070717755944475
-0.0009437694059405941,0.003462589942478165,-1.052281104050501
-0.0009434394059405941,0.002456362256851355,-1.033844452156527
-0.0009431094059405941,0.001785543799766815,-1.022782461020142
-0.0009427794059405941,0.001114725342682275,-1.008033139504963
-0.0009424494059405941,0.0004439068855977347,-0.9932838179897843
-0.0009421194059405941,0.0001084976570554647,-0.9748471660958103
-0.0009417894059405941,-0.0005623208000290754,-0.9564105142018364
-0.0009414594059405941,-0.001233139257113615,-0.9416611926866573
-0.0009411294059405941,-0.001568548485655885,-0.9232245407926833
-0.0009407994059405942,-0.002574776171282238,-0.915849880035097
-0.0009404694059405942,-0.003916413085451166,-0.8974132281411282
-0.0009401394059405942,-0.004922640771078127,-0.8863512370047404
-0.0009398094059405942,-0.005928868456704938,-0.871601915489563
-0.000939479405940594,-0.006599686913790088,-0.8568525939743705
-0.000939149405940594,-0.006935096142332664,-0.8421032724591879
